Name:  Light yellowish brown loam
Type:  Soils
Class:  Aridisol
Subclass:  Calciorthid
Particle Size:  see additional information
Sample No.:  84P3721
Owner:  JHU
Wavelength range:  All
Origin:  1.5 km NE of Minkher Gharbi, Syria via USDA Soil Conservation 
service.
Description:  The parent material is igneous-basaltic rock.  
Physiography: level to undulating upland plains.  Light yellowish brown 
loam, (typic xerollic).



Measurement:  Directional (10 degree) hemispherical reflectance
First Column:  X
Second Column:  Y
X Units:  Wavelength (micrometers)
Y Units:  Reflectance (percent)
First X Value:  14.0112
Last X Value:  0.4000
Number of X Values:  2844
Additional information:  84P3721a.txt
14.983    1.4163
14.940    1.3726
14.897    1.3396
14.854    1.3272
14.812    1.3384
14.770    1.3675
14.728    1.4041
14.686    1.4353
14.645    1.4522
14.603    1.4522
14.562    1.4392
14.521    1.4214
14.481    1.4058
14.441    1.3975
14.400    1.3963
14.361    1.3999
14.321    1.4053
14.281    1.4104
14.242    1.4153
14.203    1.4209
14.164    1.4270
14.126    1.4329
14.087    1.4370
14.049    1.4397
14.011    1.4434
13.973    1.4527
13.936    1.4732
13.899    1.5081
13.861    1.5569
13.824    1.6143
13.788    1.6717
13.751    1.7215
13.715    1.7583
13.679    1.7810
13.643    1.7918
13.607    1.7940
13.571    1.7905
13.536    1.7840
13.500    1.7744
13.465    1.7620
13.430    1.7473
13.396    1.7324
13.361    1.7197
13.327    1.7122
13.293    1.7124
13.259    1.7207
13.225    1.7356
13.191    1.7559
13.158    1.7781
13.124    1.8003
13.091    1.8216
13.058    1.8411
13.026    1.8582
12.993    1.8726
12.960    1.8828
12.928    1.8870
12.896    1.8816
12.864    1.8653
12.832    1.8374
12.800    1.8018
12.769    1.7639
12.737    1.7327
12.706    1.7151
12.675    1.7166
12.644    1.7366
12.614    1.7703
12.583    1.8079
12.552    1.8408
12.522    1.8618
12.492    1.8692
12.462    1.8655
12.432    1.8570
12.402    1.8513
12.373    1.8548
12.343    1.8716
12.314    1.9043
12.285    1.9524
12.256    2.0132
12.227    2.0820
12.198    2.1519
12.169    2.2153
12.141    2.2666
12.113    2.3018
12.084    2.3213
12.056    2.3303
12.028    2.3364
12.000    2.3479
11.973    2.3696
11.945    2.4031
11.918    2.4446
11.890    2.4893
11.863    2.5320
11.836    2.5694
11.809    2.6018
11.782    2.6319
11.755    2.6631
11.729    2.6985
11.702    2.7383
11.676    2.7800
11.650    2.8196
11.624    2.8496
11.598    2.8635
11.572    2.8552
11.546    2.8228
11.520    2.7683
11.495    2.7002
11.469    2.6304
11.444    2.5725
11.419    2.5376
11.394    2.5322
11.369    2.5540
11.344    2.5945
11.319    2.6402
11.294    2.6780
11.270    2.6970
11.245    2.6931
11.221    2.6675
11.197    2.6248
11.173    2.5725
11.149    2.5169
11.125    2.4634
11.101    2.4141
11.077    2.3699
11.054    2.3311
11.030    2.2964
11.007    2.2664
10.983    2.2417
10.960    2.2239
10.937    2.2134
10.914    2.2107
10.891    2.2146
10.868    2.2224
10.846    2.2300
10.823    2.2344
10.800    2.2332
10.778    2.2266
10.755    2.2183
10.733    2.2124
10.711    2.2139
10.689    2.2263
10.667    2.2500
10.645    2.2822
10.623    2.3176
10.602    2.3499
10.580    2.3738
10.558    2.3867
10.537    2.3884
10.516    2.3816
10.494    2.3709
10.473    2.3599
10.452    2.3523
10.431    2.3489
10.410    2.3491
10.389    2.3506
10.368    2.3516
10.348    2.3501
10.327    2.3467
10.306    2.3430
10.286    2.3408
10.266    2.3428
10.245    2.3494
10.225    2.3596
10.205    2.3721
10.185    2.3843
10.165    2.3953
10.145    2.4058
10.125    2.4180
10.106    2.4339
10.086    2.4544
10.066    2.4793
10.047    2.5056
10.027    2.5310
10.008    2.5530
 9.989    2.5718
 9.970    2.5896
 9.950    2.6096
 9.931    2.6343
 9.912    2.6638
 9.893    2.6958
 9.875    2.7271
 9.856    2.7525
 9.837    2.7705
 9.819    2.7818
 9.800    2.7888
 9.781    2.7974
 9.763    2.8106
 9.745    2.8311
 9.726    2.8601
 9.708    2.8970
 9.690    2.9387
 9.672    2.9832
 9.654    3.0274
 9.636    3.0672
 9.618    3.1001
 9.600    3.1236
 9.582    3.1365
 9.565    3.1399
 9.547    3.1358
 9.530    3.1279
 9.512    3.1201
 9.495    3.1140
 9.477    3.1118
 9.460    3.1128
 9.443    3.1162
 9.426    3.1204
 9.409    3.1231
 9.392    3.1231
 9.375    3.1187
 9.358    3.1084
 9.341    3.0916
 9.324    3.0679
 9.307    3.0376
 9.291    3.0007
 9.274    2.9585
 9.257    2.9126
 9.241    2.8655
 9.225    2.8208
 9.208    2.7820
 9.192    2.7522
 9.175    2.7322
 9.159    2.7205
 9.143    2.7134
 9.127    2.7058
 9.111    2.6946
 9.095    2.6785
 9.079    2.6585
 9.063    2.6392
 9.047    2.6243
 9.032    2.6172
 9.016    2.6192
 9.000    2.6287
 8.985    2.6443
 8.969    2.6629
 8.954    2.6831
 8.938    2.7041
 8.923    2.7244
 8.908    2.7437
 8.892    2.7617
 8.877    2.7769
 8.862    2.7898
 8.847    2.8010
 8.832    2.8120
 8.817    2.8240
 8.802    2.8384
 8.787    2.8550
 8.772    2.8726
 8.757    2.8884
 8.742    2.8989
 8.727    2.8999
 8.713    2.8887
 8.698    2.8650
 8.684    2.8323
 8.669    2.7969
 8.655    2.7681
 8.640    2.7547
 8.626    2.7634
 8.612    2.7952
 8.597    2.8465
 8.583    2.9097
 8.569    2.9761
 8.555    3.0381
 8.541    3.0925
 8.527    3.1397
 8.513    3.1829
 8.499    3.2249
 8.485    3.2673
 8.471    3.3108
 8.457    3.3535
 8.443    3.3950
 8.430    3.4358
 8.416    3.4793
 8.402    3.5281
 8.389    3.5855
 8.375    3.6538
 8.361    3.7337
 8.348    3.8250
 8.335    3.9275
 8.321    4.0418
 8.308    4.1677
 8.295    4.3052
 8.281    4.4512
 8.268    4.6021
 8.255    4.7510
 8.242    4.8919
 8.229    5.0178
 8.216    5.1245
 8.203    5.2092
 8.190    5.2715
 8.177    5.3125
 8.164    5.3359
 8.151    5.3452
 8.138    5.3452
 8.126    5.3399
 8.113    5.3335
 8.100    5.3284
 8.088    5.3269
 8.075    5.3296
 8.062    5.3369
 8.050    5.3484
 8.037    5.3630
 8.025    5.3787
 8.013    5.3943
 8.000    5.4082
 7.988    5.4204
 7.976    5.4319
 7.963    5.4426
 7.951    5.4544
 7.939    5.4675
 7.927    5.4822
 7.915    5.4985
 7.903    5.5159
 7.891    5.5349
 7.879    5.5557
 7.867    5.5786
 7.855    5.6038
 7.843    5.6316
 7.831    5.6611
 7.819    5.6929
 7.808    5.7271
 7.796    5.7644
 7.784    5.8054
 7.772    5.8506
 7.761    5.8984
 7.749    5.9478
 7.737    5.9954
 7.726    6.0381
 7.715    6.0733
 7.703    6.0991
 7.692    6.1155
 7.680    6.1243
 7.669    6.1265
 7.657    6.1248
 7.646    6.1196
 7.635    6.1128
 7.624    6.1040
 7.613    6.0955
 7.601    6.0889
 7.590    6.0867
 7.579    6.0920
 7.568    6.1060
 7.557    6.1277
 7.546    6.1536
 7.535    6.1782
 7.524    6.1958
 7.513    6.2017
 7.502    6.1951
 7.492    6.1773
 7.481    6.1528
 7.470    6.1270
 7.459    6.1038
 7.449    6.0847
 7.438    6.0686
 7.427    6.0523
 7.417    6.0305
 7.406    5.9993
 7.395    5.9551
 7.385    5.8958
 7.374    5.8215
 7.364    5.7332
 7.353    5.6323
 7.343    5.5195
 7.333    5.3962
 7.322    5.2642
 7.312    5.1243
 7.302    4.9795
 7.291    4.8330
 7.281    4.6880
 7.271    4.5471
 7.261    4.4114
 7.251    4.2798
 7.240    4.1499
 7.230    4.0188
 7.220    3.8843
 7.210    3.7456
 7.200    3.6060
 7.190    3.4700
 7.180    3.3443
 7.170    3.2371
 7.160    3.1553
 7.151    3.1021
 7.141    3.0772
 7.131    3.0750
 7.121    3.0847
 7.111    3.0943
 7.102    3.0916
 7.092    3.0681
 7.082    3.0213
 7.072    2.9546
 7.063    2.8757
 7.053    2.7947
 7.044    2.7195
 7.034    2.6548
 7.025    2.6004
 7.015    2.5542
 7.006    2.5120
 6.996    2.4715
 6.987    2.4324
 6.977    2.3975
 6.968    2.3696
 6.959    2.3508
 6.949    2.3411
 6.940    2.3367
 6.931    2.3328
 6.921    2.3228
 6.912    2.3028
 6.903    2.2713
 6.894    2.2307
 6.885    2.1878
 6.875    2.1504
 6.866    2.1258
 6.857    2.1174
 6.848    2.1240
 6.839    2.1404
 6.830    2.1592
 6.821    2.1746
 6.812    2.1839
 6.803    2.1895
 6.794    2.1958
 6.785    2.2083
 6.777    2.2290
 6.768    2.2566
 6.759    2.2862
 6.750    2.3113
 6.741    2.3269
 6.733    2.3316
 6.724    2.3267
 6.715    2.3167
 6.707    2.3064
 6.698    2.2986
 6.689    2.2947
 6.681    2.2932
 6.672    2.2942
 6.663    2.2979
 6.655    2.3086
 6.646    2.3296
 6.638    2.3645
 6.629    2.4131
 6.621    2.4710
 6.612    2.5313
 6.604    2.5877
 6.596    2.6384
 6.587    2.6878
 6.579    2.7439
 6.571    2.8154
 6.562    2.9075
 6.554    3.0154
 6.546    3.1292
 6.537    3.2339
 6.529    3.3191
 6.521    3.3833
 6.513    3.4375
 6.505    3.5020
 6.496    3.5979
 6.488    3.7378
 6.480    3.9190
 6.472    4.1206
 6.464    4.3106
 6.456    4.4568
 6.448    4.5386
 6.440    4.5552
 6.432    4.5244
 6.424    4.4771
 6.416    4.4409
 6.408    4.4331
 6.400    4.4529
 6.392    4.4851
 6.384    4.5076
 6.377    4.5020
 6.369    4.4612
 6.361    4.3892
 6.353    4.2986
 6.345    4.2048
 6.338    4.1184
 6.330    4.0442
 6.322    3.9807
 6.314    3.9224
 6.307    3.8648
 6.299    3.8052
 6.291    3.7434
 6.284    3.6802
 6.276    3.6172
 6.269    3.5545
 6.261    3.4912
 6.253    3.4243
 6.246    3.3516
 6.239    3.2703
 6.231    3.1790
 6.223    3.0777
 6.216    2.9688
 6.209    2.8560
 6.201    2.7439
 6.194    2.6384
 6.186    2.5440
 6.179    2.4632
 6.172    2.3960
 6.164    2.3408
 6.157    2.2942
 6.150    2.2532
 6.142    2.2161
 6.135    2.1831
 6.128    2.1560
 6.121    2.1362
 6.113    2.1238
 6.106    2.1155
 6.099    2.1067
 6.092    2.0925
 6.085    2.0701
 6.078    2.0415
 6.070    2.0142
 6.063    1.9981
 6.056    2.0029
 6.049    2.0342
 6.042    2.0904
 6.035    2.1633
 6.028    2.2412
 6.021    2.3137
 6.014    2.3736
 6.007    2.4197
 6.000    2.4561
 5.993    2.4881
 5.986    2.5210
 5.979    2.5574
 5.973    2.5989
 5.966    2.6477
 5.959    2.7078
 5.952    2.7859
 5.945    2.8877
 5.938    3.0154
 5.931    3.1633
 5.925    3.3206
 5.918    3.4729
 5.911    3.6104
 5.904    3.7315
 5.898    3.8460
 5.891    3.9700
 5.884    4.1189
 5.878    4.2993
 5.871    4.5047
 5.864    4.7166
 5.858    4.9131
 5.851    5.0774
 5.845    5.2063
 5.838    5.3108
 5.831    5.4104
 5.825    5.5247
 5.818    5.6621
 5.812    5.8159
 5.805    5.9673
 5.799    6.0923
 5.792    6.1753
 5.786    6.2153
 5.779    6.2268
 5.773    6.2346
 5.767    6.2632
 5.760    6.3274
 5.754    6.4268
 5.747    6.5501
 5.741    6.6787
 5.735    6.7980
 5.728    6.9020
 5.722    6.9910
 5.716    7.0760
 5.709    7.1640
 5.703    7.2610
 5.697    7.3630
 5.691    7.4620
 5.684    7.5450
 5.678    7.6020
 5.672    7.6290
 5.666    7.6280
 5.660    7.6110
 5.653    7.5910
 5.647    7.5800
 5.641    7.5840
 5.635    7.5970
 5.629    7.6020
 5.623    7.5720
 5.617    7.4770
 5.611    7.2970
 5.604    7.0220
 5.598    6.6660
 5.592    6.2625
 5.586    5.8611
 5.580    5.5198
 5.574    5.2925
 5.568    5.2178
 5.562    5.3128
 5.556    5.5679
 5.551    5.9522
 5.545    6.4182
 5.539    6.9150
 5.533    7.3960
 5.527    7.8270
 5.521    8.1890
 5.515    8.4770
 5.509    8.6970
 5.503    8.8590
 5.497    8.9800
 5.492    9.0760
 5.486    9.1640
 5.480    9.2600
 5.474    9.3750
 5.468    9.5140
 5.463    9.6700
 5.457    9.8290
 5.451    9.9710
 5.446   10.0810
 5.440   10.1510
 5.434   10.1840
 5.428   10.1940
 5.423   10.1950
 5.417   10.1990
 5.411   10.2100
 5.406   10.2230
 5.400   10.2270
 5.394   10.2110
 5.389   10.1700
 5.383   10.1030
 5.378   10.0180
 5.372    9.9260
 5.367    9.8410
 5.361    9.7790
 5.356    9.7510
 5.350    9.7620
 5.345    9.8120
 5.339    9.8950
 5.333   10.0000
 5.328   10.1100
 5.322   10.2160
 5.317   10.3080
 5.312   10.3850
 5.306   10.4540
 5.301   10.5210
 5.295   10.5960
 5.290   10.6880
 5.285   10.8020
 5.279   10.9360
 5.274   11.0900
 5.268   11.2580
 5.263   11.4350
 5.258   11.6160
 5.252   11.7930
 5.247   11.9630
 5.242   12.1240
 5.237   12.2740
 5.231   12.4120
 5.226   12.5410
 5.221   12.6650
 5.215   12.7860
 5.210   12.9050
 5.205   13.0240
 5.200   13.1380
 5.194   13.2440
 5.189   13.3370
 5.184   13.4120
 5.179   13.4680
 5.174   13.5050
 5.169   13.5270
 5.164   13.5420
 5.158   13.5560
 5.153   13.5790
 5.148   13.6140
 5.143   13.6640
 5.138   13.7270
 5.133   13.7950
 5.128   13.8610
 5.123   13.9180
 5.118   13.9620
 5.113   13.9910
 5.107   14.0080
 5.103   14.0170
 5.098   14.0230
 5.093   14.0290
 5.088   14.0400
 5.082   14.0560
 5.077   14.0790
 5.073   14.1090
 5.068   14.1470
 5.063   14.1890
 5.058   14.2350
 5.053   14.2780
 5.048   14.3170
 5.043   14.3490
 5.038   14.3750
 5.033   14.3970
 5.028   14.4200
 5.023   14.4470
 5.019   14.4810
 5.014   14.5220
 5.009   14.5700
 5.004   14.6250
 4.999   14.6870
 4.994   14.7590
 4.990   14.8430
 4.985   14.9410
 4.980   15.0530
 4.975   15.1770
 4.970   15.3090
 4.966   15.4420
 4.961   15.5720
 4.956   15.6940
 4.951   15.8060
 4.947   15.9090
 4.942   16.0040
 4.937   16.0930
 4.933   16.1820
 4.928   16.2740
 4.923   16.3730
 4.919   16.4840
 4.914   16.6090
 4.909   16.7460
 4.905   16.8930
 4.900   17.0450
 4.895   17.1950
 4.891   17.3380
 4.886   17.4690
 4.882   17.5860
 4.877   17.6880
 4.872   17.7770
 4.868   17.8570
 4.863   17.9300
 4.859   17.9990
 4.854   18.0650
 4.849   18.1300
 4.845   18.1920
 4.840   18.2510
 4.836   18.3080
 4.832   18.3630
 4.827   18.4170
 4.822   18.4710
 4.818   18.5230
 4.814   18.5740
 4.809   18.6230
 4.805   18.6680
 4.800   18.7110
 4.796   18.7510
 4.791   18.7890
 4.787   18.8270
 4.782   18.8640
 4.778   18.9030
 4.774   18.9410
 4.769   18.9810
 4.765   19.0210
 4.761   19.0620
 4.756   19.1040
 4.752   19.1470
 4.747   19.1890
 4.743   19.2290
 4.739   19.2660
 4.734   19.2960
 4.730   19.3190
 4.726   19.3330
 4.721   19.3360
 4.717   19.3260
 4.713   19.3040
 4.709   19.2700
 4.704   19.2270
 4.700   19.1810
 4.696   19.1370
 4.691   19.1010
 4.687   19.0780
 4.683   19.0720
 4.679   19.0840
 4.675   19.1130
 4.670   19.1590
 4.666   19.2190
 4.662   19.2900
 4.658   19.3710
 4.654   19.4610
 4.649   19.5590
 4.645   19.6650
 4.641   19.7770
 4.637   19.8930
 4.633   20.0120
 4.629   20.1300
 4.625   20.2450
 4.620   20.3540
 4.616   20.4560
 4.612   20.5510
 4.608   20.6380
 4.604   20.7180
 4.600   20.7910
 4.596   20.8580
 4.592   20.9190
 4.588   20.9760
 4.584   21.0310
 4.580   21.0880
 4.576   21.1460
 4.572   21.2080
 4.567   21.2730
 4.564   21.3400
 4.559   21.4050
 4.556   21.4670
 4.551   21.5230
 4.548   21.5710
 4.543   21.6120
 4.540   21.6470
 4.536   21.6760
 4.532   21.7020
 4.528   21.7260
 4.524   21.7500
 4.520   21.7740
 4.516   21.7990
 4.512   21.8250
 4.508   21.8530
 4.504   21.8820
 4.500   21.9120
 4.496   21.9440
 4.492   21.9780
 4.488   22.0150
 4.485   22.0570
 4.481   22.1010
 4.477   22.1510
 4.473   22.2030
 4.469   22.2610
 4.465   22.3220
 4.461   22.3880
 4.458   22.4570
 4.454   22.5300
 4.450   22.6030
 4.446   22.6740
 4.442   22.7430
 4.439   22.8070
 4.435   22.8680
 4.431   22.9280
 4.427   22.9890
 4.423   23.0530
 4.420   23.1210
 4.416   23.1940
 4.412   23.2680
 4.408   23.3440
 4.404   23.4180
 4.401   23.4870
 4.397   23.5510
 4.393   23.6100
 4.390   23.6640
 4.386   23.7170
 4.382   23.7710
 4.378   23.8270
 4.375   23.8860
 4.371   23.9460
 4.367   24.0050
 4.364   24.0600
 4.360   24.1090
 4.356   24.1500
 4.353   24.1840
 4.349   24.2140
 4.346   24.2420
 4.342   24.2700
 4.338   24.2980
 4.335   24.3250
 4.331   24.3500
 4.327   24.3690
 4.324   24.3810
 4.320   24.3850
 4.316   24.3820
 4.313   24.3720
 4.309   24.3570
 4.306   24.3390
 4.302   24.3180
 4.299   24.2910
 4.295   24.2580
 4.292   24.2180
 4.288   24.1720
 4.284   24.1290
 4.281   24.0980
 4.277   24.0950
 4.274   24.1300
 4.270   24.2060
 4.267   24.3170
 4.263   24.4470
 4.260   24.5720
 4.256   24.6730
 4.253   24.7330
 4.249   24.7510
 4.246   24.7350
 4.242   24.7040
 4.239   24.6780
 4.235   24.6790
 4.232   24.7160
 4.229   24.7970
 4.225   24.9150
 4.222   25.0640
 4.218   25.2320
 4.215   25.4060
 4.211   25.5750
 4.208   25.7290
 4.205   25.8610
 4.201   25.9690
 4.198   26.0520
 4.194   26.1130
 4.191   26.1570
 4.188   26.1900
 4.184   26.2160
 4.181   26.2390
 4.177   26.2600
 4.174   26.2780
 4.171   26.2940
 4.167   26.3050
 4.164   26.3130
 4.161   26.3190
 4.157   26.3240
 4.154   26.3300
 4.151   26.3380
 4.147   26.3480
 4.144   26.3580
 4.141   26.3680
 4.137   26.3750
 4.134   26.3770
 4.131   26.3720
 4.128   26.3620
 4.124   26.3460
 4.121   26.3240
 4.118   26.3000
 4.114   26.2740
 4.111   26.2480
 4.108   26.2230
 4.105   26.1970
 4.101   26.1690
 4.098   26.1360
 4.095   26.0960
 4.092   26.0470
 4.088   25.9900
 4.085   25.9240
 4.082   25.8510
 4.079   25.7710
 4.076   25.6860
 4.072   25.5940
 4.069   25.4930
 4.066   25.3800
 4.063   25.2500
 4.060   25.0950
 4.056   24.9080
 4.053   24.6830
 4.050   24.4150
 4.047   24.1030
 4.044   23.7480
 4.041   23.3580
 4.037   22.9380
 4.034   22.4970
 4.031   22.0410
 4.028   21.5730
 4.025   21.0920
 4.022   20.5950
 4.019   20.0740
 4.016   19.5230
 4.013   18.9370
 4.009   18.3160
 4.006   17.6660
 4.003   17.0020
 4.000   16.3430
 3.997   15.7130
 3.994   15.1370
 3.991   14.6350
 3.988   14.2210
 3.985   13.9040
 3.982   13.6830
 3.979   13.5520
 3.976   13.5010
 3.973   13.5250
 3.970   13.6170
 3.966   13.7760
 3.963   14.0040
 3.960   14.3050
 3.957   14.6780
 3.954   15.1210
 3.951   15.6190
 3.948   16.1520
 3.945   16.6920
 3.942   17.2090
 3.939   17.6750
 3.936   18.0710
 3.933   18.3920
 3.930   18.6390
 3.927   18.8290
 3.924   18.9780
 3.921   19.1030
 3.918   19.2180
 3.916   19.3280
 3.913   19.4350
 3.910   19.5380
 3.907   19.6320
 3.904   19.7150
 3.901   19.7870
 3.898   19.8460
 3.895   19.8950
 3.892   19.9340
 3.889   19.9670
 3.886   19.9960
 3.883   20.0200
 3.880   20.0430
 3.877   20.0630
 3.875   20.0830
 3.872   20.1040
 3.869   20.1260
 3.866   20.1530
 3.863   20.1840
 3.860   20.2200
 3.857   20.2640
 3.854   20.3160
 3.852   20.3770
 3.849   20.4510
 3.846   20.5410
 3.843   20.6490
 3.840   20.7790
 3.837   20.9290
 3.834   21.0990
 3.832   21.2820
 3.829   21.4720
 3.826   21.6620
 3.823   21.8460
 3.820   22.0210
 3.817   22.1890
 3.815   22.3510
 3.812   22.5140
 3.809   22.6830
 3.806   22.8620
 3.804   23.0500
 3.801   23.2430
 3.798   23.4330
 3.795   23.6110
 3.792   23.7670
 3.790   23.8960
 3.787   23.9970
 3.784   24.0700
 3.781   24.1200
 3.779   24.1530
 3.776   24.1750
 3.773   24.1880
 3.770   24.1940
 3.768   24.1940
 3.765   24.1850
 3.762   24.1680
 3.759   24.1420
 3.757   24.1060
 3.754   24.0640
 3.751   24.0190
 3.748   23.9750
 3.746   23.9340
 3.743   23.8980
 3.740   23.8640
 3.738   23.8310
 3.735   23.7960
 3.732   23.7550
 3.730   23.7080
 3.727   23.6530
 3.724   23.5940
 3.722   23.5320
 3.719   23.4700
 3.716   23.4100
 3.714   23.3500
 3.711   23.2920
 3.708   23.2340
 3.706   23.1750
 3.703   23.1150
 3.700   23.0550
 3.698   22.9950
 3.695   22.9350
 3.692   22.8740
 3.690   22.8120
 3.687   22.7480
 3.684   22.6810
 3.682   22.6110
 3.679   22.5400
 3.677   22.4690
 3.674   22.3990
 3.672   22.3310
 3.669   22.2660
 3.666   22.2030
 3.664   22.1420
 3.661   22.0800
 3.659   22.0170
 3.656   21.9490
 3.653   21.8740
 3.651   21.7920
 3.648   21.7050
 3.646   21.6150
 3.643   21.5270
 3.641   21.4450
 3.638   21.3690
 3.636   21.3000
 3.633   21.2350
 3.630   21.1710
 3.628   21.1050
 3.625   21.0360
 3.623   20.9610
 3.620   20.8830
 3.618   20.8020
 3.615   20.7200
 3.613   20.6390
 3.610   20.5570
 3.608   20.4750
 3.605   20.3890
 3.603   20.3000
 3.600   20.2060
 3.598   20.1070
 3.595   20.0060
 3.593   19.9030
 3.590   19.8010
 3.588   19.6970
 3.585   19.5910
 3.583   19.4810
 3.580   19.3650
 3.578   19.2460
 3.575   19.1260
 3.573   19.0090
 3.570   18.9010
 3.568   18.8030
 3.565   18.7140
 3.563   18.6300
 3.561   18.5450
 3.558   18.4550
 3.556   18.3560
 3.553   18.2470
 3.551   18.1270
 3.548   17.9980
 3.546   17.8600
 3.543   17.7130
 3.541   17.5540
 3.539   17.3830
 3.536   17.1980
 3.534   16.9970
 3.531   16.7790
 3.529   16.5440
 3.527   16.2890
 3.524   16.0170
 3.522   15.7260
 3.519   15.4210
 3.517   15.1100
 3.515   14.8020
 3.512   14.5100
 3.510   14.2470
 3.507   14.0200
 3.505   13.8330
 3.503   13.6850
 3.500   13.5640
 3.498   13.4590
 3.496   13.3560
 3.493   13.2440
 3.491   13.1180
 3.489   12.9790
 3.486   12.8360
 3.484   12.7020
 3.482   12.5910
 3.479   12.5160
 3.477   12.4840
 3.475   12.4960
 3.472   12.5470
 3.470   12.6240
 3.468   12.7150
 3.465   12.8040
 3.463   12.8790
 3.461   12.9330
 3.458   12.9610
 3.456   12.9650
 3.454   12.9480
 3.451   12.9170
 3.449   12.8750
 3.447   12.8290
 3.445   12.7790
 3.442   12.7230
 3.440   12.6610
 3.438   12.5880
 3.436   12.5040
 3.433   12.4090
 3.431   12.3050
 3.429   12.1970
 3.426   12.0910
 3.424   11.9910
 3.422   11.9030
 3.420   11.8270
 3.417   11.7650
 3.415   11.7150
 3.413   11.6760
 3.411   11.6440
 3.408   11.6190
 3.406   11.5980
 3.404   11.5810
 3.402   11.5670
 3.399   11.5540
 3.397   11.5400
 3.395   11.5210
 3.393   11.4970
 3.391   11.4650
 3.388   11.4260
 3.386   11.3820
 3.384   11.3350
 3.382   11.2900
 3.380   11.2460
 3.377   11.2040
 3.375   11.1640
 3.373   11.1250
 3.371   11.0840
 3.369   11.0410
 3.366   10.9930
 3.364   10.9400
 3.362   10.8810
 3.360   10.8160
 3.358   10.7490
 3.355   10.6840
 3.353   10.6280
 3.351   10.5890
 3.349   10.5730
 3.347   10.5850
 3.345   10.6250
 3.342   10.6890
 3.340   10.7700
 3.338   10.8560
 3.336   10.9340
 3.334   10.9930
 3.332   11.0270
 3.330   11.0320
 3.327   11.0120
 3.325   10.9720
 3.323   10.9210
 3.321   10.8660
 3.319   10.8120
 3.317   10.7590
 3.315   10.7090
 3.313   10.6570
 3.310   10.6020
 3.308   10.5410
 3.306   10.4750
 3.304   10.4050
 3.302   10.3340
 3.300   10.2650
 3.298   10.2010
 3.296   10.1440
 3.294   10.0930
 3.292   10.0440
 3.289    9.9950
 3.287    9.9440
 3.285    9.8880
 3.283    9.8280
 3.281    9.7660
 3.279    9.7020
 3.277    9.6370
 3.275    9.5730
 3.273    9.5080
 3.271    9.4420
 3.269    9.3750
 3.267    9.3070
 3.265    9.2390
 3.263    9.1720
 3.261    9.1070
 3.258    9.0440
 3.256    8.9820
 3.254    8.9200
 3.252    8.8580
 3.250    8.7950
 3.248    8.7310
 3.246    8.6660
 3.244    8.6010
 3.242    8.5350
 3.240    8.4690
 3.238    8.4030
 3.236    8.3370
 3.234    8.2710
 3.232    8.2070
 3.230    8.1430
 3.228    8.0820
 3.226    8.0250
 3.224    7.9710
 3.222    7.9200
 3.220    7.8720
 3.218    7.8250
 3.216    7.7760
 3.214    7.7230
 3.212    7.6680
 3.210    7.6100
 3.208    7.5510
 3.206    7.4930
 3.204    7.4340
 3.202    7.3750
 3.200    7.3150
 3.198    7.2520
 3.196    7.1890
 3.194    7.1270
 3.192    7.0680
 3.190    7.0150
 3.188    6.9670
 3.186    6.9220
 3.184    6.8780
 3.182    6.8310
 3.180    6.7800
 3.179    6.7253
 3.177    6.6692
 3.175    6.6148
 3.173    6.5635
 3.171    6.5169
 3.169    6.4727
 3.167    6.4297
 3.165    6.3860
 3.163    6.3399
 3.161    6.2918
 3.159    6.2420
 3.157    6.1904
 3.155    6.1367
 3.153    6.0798
 3.152    6.0200
 3.150    5.9590
 3.148    5.8999
 3.146    5.8464
 3.144    5.8013
 3.142    5.7649
 3.140    5.7349
 3.138    5.7070
 3.136    5.6758
 3.134    5.6372
 3.132    5.5899
 3.131    5.5347
 3.129    5.4751
 3.127    5.4153
 3.125    5.3601
 3.123    5.3118
 3.121    5.2715
 3.119    5.2383
 3.117    5.2102
 3.115    5.1843
 3.114    5.1582
 3.112    5.1299
 3.110    5.0974
 3.108    5.0603
 3.106    5.0183
 3.104    4.9727
 3.102    4.9253
 3.101    4.8796
 3.099    4.8389
 3.097    4.8054
 3.095    4.7800
 3.093    4.7610
 3.091    4.7454
 3.090    4.7290
 3.088    4.7097
 3.086    4.6860
 3.084    4.6594
 3.082    4.6323
 3.080    4.6069
 3.079    4.5838
 3.077    4.5620
 3.075    4.5388
 3.073    4.5125
 3.071    4.4824
 3.069    4.4509
 3.067    4.4212
 3.066    4.3980
 3.064    4.3836
 3.062    4.3777
 3.060    4.3765
 3.059    4.3748
 3.057    4.3679
 3.055    4.3543
 3.053    4.3335
 3.051    4.3098
 3.050    4.2874
 3.048    4.2693
 3.046    4.2568
 3.044    4.2493
 3.042    4.2444
 3.041    4.2402
 3.039    4.2356
 3.037    4.2295
 3.035    4.2227
 3.033    4.2139
 3.032    4.2031
 3.030    4.1892
 3.028    4.1719
 3.026    4.1511
 3.025    4.1277
 3.023    4.1030
 3.021    4.0781
 3.019    4.0535
 3.018    4.0291
 3.016    4.0047
 3.014    3.9802
 3.012    3.9568
 3.011    3.9351
 3.009    3.9165
 3.007    3.9028
 3.005    3.8941
 3.004    3.8889
 3.002    3.8853
 3.000    3.8787
 2.998    3.8662
 2.997    3.8455
 2.995    3.8164
 2.993    3.7813
 2.991    3.7454
 2.990    3.7131
 2.988    3.6875
 2.986    3.6694
 2.985    3.6565
 2.983    3.6458
 2.981    3.6348
 2.979    3.6228
 2.978    3.6109
 2.976    3.6016
 2.974    3.5972
 2.973    3.5977
 2.971    3.6008
 2.969    3.6026
 2.967    3.5994
 2.966    3.5881
 2.964    3.5679
 2.962    3.5415
 2.961    3.5122
 2.959    3.4844
 2.957    3.4617
 2.956    3.4458
 2.954    3.4365
 2.952    3.4329
 2.951    3.4324
 2.949    3.4329
 2.947    3.4326
 2.946    3.4317
 2.944    3.4304
 2.942    3.4302
 2.941    3.4326
 2.939    3.4375
 2.937    3.4446
 2.936    3.4509
 2.934    3.4539
 2.932    3.4509
 2.931    3.4414
 2.929    3.4268
 2.927    3.4099
 2.926    3.3941
 2.924    3.3826
 2.922    3.3757
 2.921    3.3735
 2.919    3.3735
 2.917    3.3745
 2.916    3.3762
 2.914    3.3797
 2.912    3.3862
 2.911    3.3977
 2.909    3.4131
 2.908    3.4319
 2.906    3.4505
 2.904    3.4675
 2.903    3.4812
 2.901    3.4915
 2.899    3.4993
 2.898    3.5064
 2.896    3.5137
 2.895    3.5213
 2.893    3.5296
 2.891    3.5381
 2.890    3.5464
 2.888    3.5545
 2.886    3.5637
 2.885    3.5737
 2.883    3.5860
 2.882    3.6004
 2.880    3.6157
 2.878    3.6316
 2.877    3.6458
 2.875    3.6572
 2.874    3.6660
 2.872    3.6726
 2.870    3.6780
 2.869    3.6836
 2.867    3.6900
 2.866    3.6970
 2.864    3.7034
 2.863    3.7080
 2.861    3.7097
 2.859    3.7085
 2.858    3.7036
 2.856    3.6951
 2.855    3.6826
 2.853    3.6665
 2.852    3.6480
 2.850    3.6275
 2.848    3.6072
 2.847    3.5889
 2.845    3.5723
 2.844    3.5574
 2.842    3.5425
 2.841    3.5259
 2.839    3.5059
 2.837    3.4819
 2.836    3.4553
 2.834    3.4270
 2.833    3.3989
 2.831    3.3718
 2.830    3.3455
 2.828    3.3186
 2.827    3.2905
 2.825    3.2600
 2.824    3.2268
 2.822    3.1919
 2.821    3.1570
 2.819    3.1248
 2.817    3.0977
 2.816    3.0772
 2.814    3.0645
 2.813    3.0589
 2.811    3.0581
 2.810    3.0598
 2.808    3.0618
 2.807    3.0632
 2.805    3.0647
 2.804    3.0681
 2.802    3.0742
 2.801    3.0825
 2.799    3.0903
 2.798    3.0930
 2.796    3.0860
 2.795    3.0664
 2.793    3.0359
 2.792    2.9995
 2.790    2.9646
 2.789    2.9387
 2.787    2.9268
 2.786    2.9297
 2.784    2.9436
 2.783    2.9614
 2.781    2.9761
 2.780    2.9810
 2.778    2.9729
 2.777    2.9509
 2.775    2.9163
 2.774    2.8714
 2.772    2.8181
 2.771    2.7598
 2.769    2.6992
 2.768    2.6411
 2.766    2.5906
 2.765    2.5537
 2.763    2.5364
 2.762    2.5423
 2.761    2.5735
 2.759    2.6311
 2.757    2.7124
 2.756    2.8145
 2.755    2.9321
 2.753    3.0584
 2.752    3.1839
 2.750    3.2991
 2.749    3.3943
 2.747    3.4639
 2.746    3.5081
 2.744    3.5347
 2.743    3.5576
 2.741    3.5947
 2.740    3.6631
 2.739    3.7742
 2.737    3.9302
 2.736    4.1226
 2.734    4.3347
 2.733    4.5454
 2.731    4.7349
 2.730    4.8914
 2.728    5.0151
 2.727    5.1194
 2.726    5.2273
 2.724    5.3652
 2.723    5.5527
 2.721    5.7947
 2.720    6.0754
 2.719    6.3616
 2.717    6.6106
 2.716    6.7820
 2.714    6.8510
 2.713    6.8160
 2.711    6.7026
 2.710    6.5576
 2.708    6.4387
 2.707    6.4036
 2.706    6.4978
 2.704    6.7500
 2.703    7.1680
 2.701    7.7460
 2.700    8.4640
 2.699    9.3050
 2.697   10.2510
 2.696   11.2900
 2.695   12.4060
 2.693   13.5810
 2.692   14.7870
 2.690   15.9870
 2.689   17.1360
 2.688   18.1910
 2.686   19.1210
 2.685   19.9090
 2.683   20.5630
 2.682   21.1050
 2.680   21.5670
 2.679   21.9740
 2.678   22.3370
 2.676   22.6530
 2.675   22.9050
 2.674   23.0830
 2.672   23.1960
 2.671   23.2830
 2.670   23.4050
 2.668   23.6300
 2.667   24.0050
 2.665   24.5390
 2.664   25.1990
 2.663   25.9130
 2.661   26.5990
 2.660   27.1880
 2.659   27.6470
 2.657   27.9800
 2.656   28.2200
 2.655   28.4120
 2.653   28.5920
 2.652   28.7810
 2.650   28.9790
 2.649   29.1770
 2.648   29.3670
 2.646   29.5500
 2.645   29.7330
 2.644   29.9230
 2.642   30.1160
 2.641   30.2930
 2.640   30.4170
 2.638   30.4510
 2.637   30.3680
 2.636   30.1730
 2.634   29.9060
 2.633   29.6350
 2.632   29.4350
 2.630   29.3640
 2.629   29.4350
 2.627   29.6130
 2.626   29.8250
 2.625   29.9890
 2.624   30.0470
 2.622   29.9930
 2.621   29.8730
 2.620   29.7680
 2.618   29.7550
 2.617   29.8690
 2.616   30.0880
 2.614   30.3400
 2.613   30.5310
 2.612   30.5880
 2.610   30.4990
 2.609   30.3160
 2.608   30.1340
 2.606   30.0460
 2.605   30.0980
 2.604   30.2640
 2.603   30.4530
 2.601   30.5550
 2.600   30.4930
 2.599   30.2640
 2.597   29.9460
 2.596   29.6630
 2.595   29.5290
 2.593   29.6000
 2.592   29.8480
 2.591   30.1820
 2.590   30.4920
 2.588   30.7010
 2.587   30.7910
 2.586   30.8010
 2.584   30.7950
 2.583   30.8310
 2.582   30.9260
 2.580   31.0570
 2.579   31.1850
 2.578   31.2730
 2.577   31.3140
 2.575   31.3270
 2.574   31.3430
 2.573   31.3880
 2.571   31.4570
 2.570   31.5240
 2.569   31.5470
 2.568   31.4980
 2.566   31.3810
 2.565   31.2380
 2.564   31.1350
 2.563   31.1330
 2.561   31.2610
 2.560   31.5040
 2.559   31.8040
 2.558   32.0870
 2.556   32.2880
 2.555   32.3770
 2.554   32.3630
 2.553   32.2850
 2.551   32.1900
 2.550   32.1140
 2.549   32.0730
 2.547   32.0660
 2.546   32.0800
 2.545   32.1040
 2.544   32.1300
 2.543   32.1550
 2.541   32.1780
 2.540   32.1960
 2.539   32.2050
 2.538   32.2040
 2.536   32.1940
 2.535   32.1860
 2.534   32.1910
 2.533   32.2190
 2.531   32.2730
 2.530   32.3500
 2.529   32.4390
 2.528   32.5270
 2.526   32.6020
 2.525   32.6590
 2.524   32.6960
 2.523   32.7210
 2.522   32.7390
 2.520   32.7580
 2.519   32.7820
 2.518   32.8110
 2.517   32.8440
 2.515   32.8780
 2.514   32.9100
 2.513   32.9360
 2.512   32.9570
 2.511   32.9710
 2.509   32.9840
 2.508   32.9990
 2.507   33.0180
 2.506   33.0460
 2.504   33.0840
 2.503   33.1290
 2.502   33.1800
 2.501   33.2310
 2.500   33.2790
 2.498   33.3220
 2.497   33.3580
 2.496   33.3890
 2.495   33.4170
 2.494   33.4450
 2.492   33.4730
 2.491   33.5050
 2.490   33.5390
 2.489   33.5770
 2.488   33.6160
 2.486   33.6580
 2.485   33.7020
 2.484   33.7490
 2.483   33.7980
 2.482   33.8470
 2.481   33.8940
 2.479   33.9380
 2.478   33.9760
 2.477   34.0100
 2.476   34.0420
 2.474   34.0730
 2.473   34.1060
 2.472   34.1420
 2.471   34.1800
 2.470   34.2180
 2.469   34.2570
 2.467   34.2950
 2.466   34.3340
 2.465   34.3760
 2.464   34.4210
 2.463   34.4700
 2.462   34.5200
 2.460   34.5690
 2.459   34.6120
 2.458   34.6480
 2.457   34.6780
 2.456   34.7040
 2.455   34.7290
 2.454   34.7580
 2.452   34.7910
 2.451   34.8270
 2.450   34.8650
 2.449   34.9030
 2.448   34.9380
 2.446   34.9730
 2.445   35.0070
 2.444   35.0410
 2.443   35.0750
 2.442   35.1080
 2.441   35.1410
 2.440   35.1740
 2.438   35.2100
 2.437   35.2530
 2.436   35.3060
 2.435   35.3710
 2.434   35.4460
 2.433   35.5260
 2.432   35.6050
 2.430   35.6780
 2.429   35.7390
 2.428   35.7880
 2.427   35.8270
 2.426   35.8580
 2.425   35.8860
 2.424   35.9130
 2.422   35.9400
 2.421   35.9690
 2.420   36.0000
 2.419   36.0320
 2.418   36.0670
 2.417   36.1060
 2.416   36.1500
 2.415   36.1980
 2.414   36.2510
 2.412   36.3040
 2.411   36.3540
 2.410   36.3990
 2.409   36.4360
 2.408   36.4630
 2.407   36.4840
 2.406   36.5000
 2.405   36.5160
 2.403   36.5330
 2.402   36.5530
 2.401   36.5750
 2.400   36.5980
 2.399   36.6180
 2.398   36.6330
 2.397   36.6420
 2.396   36.6480
 2.394   36.6540
 2.393   36.6630
 2.392   36.6780
 2.391   36.6980
 2.390   36.7190
 2.389   36.7370
 2.388   36.7490
 2.387   36.7520
 2.386   36.7500
 2.385   36.7450
 2.384   36.7430
 2.382   36.7460
 2.381   36.7560
 2.380   36.7740
 2.379   36.7990
 2.378   36.8280
 2.377   36.8590
 2.376   36.8900
 2.375   36.9160
 2.374   36.9360
 2.373   36.9500
 2.372   36.9590
 2.370   36.9660
 2.369   36.9730
 2.368   36.9830
 2.367   36.9940
 2.366   37.0040
 2.365   37.0090
 2.364   37.0060
 2.363   36.9920
 2.362   36.9690
 2.361   36.9390
 2.360   36.9080
 2.359   36.8810
 2.357   36.8620
 2.356   36.8540
 2.355   36.8570
 2.354   36.8670
 2.353   36.8810
 2.352   36.8920
 2.351   36.8990
 2.350   36.9000
 2.349   36.8960
 2.348   36.8920
 2.347   36.8890
 2.346   36.8940
 2.345   36.9050
 2.344   36.9230
 2.343   36.9430
 2.341   36.9630
 2.341   36.9770
 2.339   36.9860
 2.338   36.9890
 2.337   36.9910
 2.336   36.9970
 2.335   37.0110
 2.334   37.0350
 2.333   37.0680
 2.332   37.1090
 2.331   37.1550
 2.330   37.2050
 2.329   37.2590
 2.328   37.3180
 2.327   37.3820
 2.326   37.4510
 2.325   37.5230
 2.324   37.5910
 2.323   37.6490
 2.322   37.6910
 2.321   37.7160
 2.320   37.7250
 2.318   37.7250
 2.317   37.7260
 2.316   37.7370
 2.315   37.7620
 2.314   37.8030
 2.313   37.8560
 2.312   37.9130
 2.311   37.9680
 2.310   38.0140
 2.309   38.0510
 2.308   38.0800
 2.307   38.1050
 2.306   38.1300
 2.305   38.1570
 2.304   38.1890
 2.303   38.2250
 2.302   38.2620
 2.301   38.2990
 2.300   38.3330
 2.299   38.3650
 2.298   38.3940
 2.297   38.4230
 2.296   38.4510
 2.295   38.4810
 2.294   38.5140
 2.293   38.5510
 2.292   38.5930
 2.291   38.6420
 2.290   38.6970
 2.289   38.7560
 2.288   38.8170
 2.287   38.8780
 2.286   38.9370
 2.285   38.9940
 2.284   39.0490
 2.283   39.1020
 2.282   39.1520
 2.281   39.1970
 2.280   39.2350
 2.279   39.2620
 2.278   39.2760
 2.277   39.2810
 2.276   39.2810
 2.275   39.2840
 2.274   39.2970
 2.273   39.3250
 2.272   39.3660
 2.271   39.4150
 2.270   39.4590
 2.269   39.4870
 2.268   39.4880
 2.267   39.4600
 2.266   39.4070
 2.265   39.3400
 2.264   39.2730
 2.263   39.2170
 2.262   39.1770
 2.261   39.1530
 2.260   39.1360
 2.259   39.1210
 2.258   39.1000
 2.257   39.0720
 2.256   39.0410
 2.255   39.0100
 2.254   38.9870
 2.253   38.9750
 2.252   38.9760
 2.251   38.9860
 2.250   39.0030
 2.249   39.0230
 2.248   39.0460
 2.247   39.0690
 2.246   39.0930
 2.245   39.1180
 2.244   39.1450
 2.243   39.1750
 2.242   39.2090
 2.241   39.2470
 2.240   39.2900
 2.239   39.3350
 2.238   39.3810
 2.237   39.4220
 2.236   39.4540
 2.236   39.4760
 2.235   39.4870
 2.234   39.4880
 2.233   39.4830
 2.232   39.4780
 2.231   39.4720
 2.230   39.4670
 2.229   39.4570
 2.228   39.4410
 2.227   39.4140
 2.226   39.3800
 2.225   39.3420
 2.224   39.3070
 2.223   39.2830
 2.222   39.2710
 2.221   39.2740
 2.220   39.2860
 2.219   39.3030
 2.218   39.3200
 2.217   39.3290
 2.216   39.3270
 2.216   39.3120
 2.215   39.2840
 2.214   39.2470
 2.213   39.2070
 2.212   39.1730
 2.211   39.1520
 2.210   39.1510
 2.209   39.1750
 2.208   39.2240
 2.207   39.2940
 2.206   39.3800
 2.205   39.4760
 2.204   39.5760
 2.203   39.6760
 2.202   39.7700
 2.201   39.8580
 2.200   39.9360
 2.200   40.0050
 2.199   40.0660
 2.198   40.1200
 2.197   40.1690
 2.196   40.2150
 2.195   40.2580
 2.194   40.2990
 2.193   40.3370
 2.192   40.3750
 2.191   40.4150
 2.190   40.4600
 2.189   40.5130
 2.188   40.5740
 2.187   40.6380
 2.187   40.7000
 2.186   40.7530
 2.185   40.7940
 2.184   40.8240
 2.183   40.8470
 2.182   40.8690
 2.181   40.8970
 2.180   40.9330
 2.179   40.9750
 2.178   41.0170
 2.177   41.0530
 2.176   41.0770
 2.176   41.0880
 2.175   41.0890
 2.174   41.0830
 2.173   41.0770
 2.172   41.0720
 2.171   41.0720
 2.170   41.0770
 2.169   41.0880
 2.168   41.1070
 2.167   41.1360
 2.166   41.1750
 2.166   41.2220
 2.165   41.2720
 2.164   41.3190
 2.163   41.3570
 2.162   41.3840
 2.161   41.3990
 2.160   41.4070
 2.159   41.4130
 2.158   41.4220
 2.157   41.4350
 2.156   41.4500
 2.156   41.4630
 2.155   41.4700
 2.154   41.4700
 2.153   41.4650
 2.152   41.4600
 2.151   41.4630
 2.150   41.4800
 2.149   41.5140
 2.148   41.5630
 2.148   41.6210
 2.147   41.6820
 2.146   41.7370
 2.145   41.7820
 2.144   41.8140
 2.143   41.8330
 2.142   41.8410
 2.141   41.8400
 2.140   41.8350
 2.140   41.8260
 2.139   41.8170
 2.138   41.8100
 2.137   41.8060
 2.136   41.8060
 2.135   41.8110
 2.134   41.8220
 2.133   41.8360
 2.132   41.8500
 2.132   41.8620
 2.131   41.8660
 2.130   41.8600
 2.129   41.8420
 2.128   41.8140
 2.127   41.7820
 2.126   41.7520
 2.126   41.7320
 2.125   41.7260
 2.124   41.7380
 2.123   41.7670
 2.122   41.8100
 2.121   41.8610
 2.120   41.9120
 2.119   41.9550
 2.119   41.9820
 2.118   41.9880
 2.117   41.9740
 2.116   41.9410
 2.115   41.8970
 2.114   41.8500
 2.113   41.8060
 2.112   41.7670
 2.112   41.7360
 2.111   41.7120
 2.110   41.6960
 2.109   41.6890
 2.108   41.6960
 2.107   41.7170
 2.107   41.7540
 2.106   41.8010
 2.105   41.8550
 2.104   41.9080
 2.103   41.9570
 2.102   41.9990
 2.101   42.0300
 2.100   42.0470
 2.100   42.0480
 2.099   42.0310
 2.098   41.9990
 2.097   41.9540
 2.096   41.9050
 2.095   41.8620
 2.095   41.8340
 2.094   41.8260
 2.093   41.8370
 2.092   41.8640
 2.091   41.8970
 2.090   41.9260
 2.090   41.9440
 2.089   41.9460
 2.088   41.9340
 2.087   41.9140
 2.086   41.8950
 2.085   41.8870
 2.084   41.8950
 2.084   41.9210
 2.083   41.9550
 2.082   41.9800
 2.081   41.9990
 2.080   41.9590
 2.079   41.8650
 2.076   41.9630
 2.072   41.7170
 2.068   41.6690
 2.064   41.8640
 2.060   41.9870
 2.056   41.7190
 2.052   41.5480
 2.048   41.5230
 2.044   41.1320
 2.040   40.9840
 2.036   41.1540
 2.032   41.0550
 2.028   41.0280
 2.024   40.7100
 2.020   40.4380
 2.016   40.2890
 2.012   39.9920
 2.008   39.7950
 2.004   39.6920
 2.000   39.5150
 1.996   39.3590
 1.992   38.9050
 1.988   38.5000
 1.984   38.3240
 1.980   38.2170
 1.976   37.8940
 1.972   37.4850
 1.968   37.3770
 1.964   37.4150
 1.960   37.2830
 1.956   37.1280
 1.952   36.7460
 1.948   36.5910
 1.944   36.1630
 1.940   35.8950
 1.936   35.4890
 1.932   35.3630
 1.928   35.0660
 1.924   34.5760
 1.920   33.9730
 1.916   33.9390
 1.912   33.9680
 1.908   34.1220
 1.904   34.2480
 1.900   34.6490
 1.896   35.8060
 1.892   37.1220
 1.888   38.2670
 1.884   39.6870
 1.880   40.6020
 1.876   41.4210
 1.872   41.4210
 1.868   41.7280
 1.864   42.2370
 1.860   42.9630
 1.856   43.7260
 1.852   43.8890
 1.848   44.4590
 1.844   44.3360
 1.840   43.6850
 1.836   43.3390
 1.832   43.6920
 1.828   44.1170
 1.824   44.1440
 1.820   44.4070
 1.816   44.6980
 1.812   44.5960
 1.808   44.4610
 1.804   44.1910
 1.800   43.9830
 1.796   43.5470
 1.792   43.9840
 1.788   43.8340
 1.784   43.6840
 1.780   43.6080
 1.776   43.7630
 1.772   43.8430
 1.768   44.0000
 1.764   44.1070
 1.760   43.8250
 1.756   43.7980
 1.752   43.8690
 1.748   43.9400
 1.744   43.9400
 1.740   44.0470
 1.736   44.3690
 1.732   44.5040
 1.728   44.3470
 1.724   44.2180
 1.720   44.1320
 1.716   44.4070
 1.712   44.3290
 1.708   44.3530
 1.704   44.5900
 1.700   44.5200
 1.696   44.1540
 1.692   44.1000
 1.688   44.2730
 1.684   44.1470
 1.680   43.7880
 1.676   43.7920
 1.672   43.6860
 1.668   43.5840
 1.664   43.9000
 1.660   44.0250
 1.656   44.1540
 1.652   43.8710
 1.648   43.8780
 1.644   44.1420
 1.640   44.1200
 1.636   43.6280
 1.632   43.6010
 1.628   43.7610
 1.624   43.7130
 1.620   43.5260
 1.616   43.8160
 1.612   43.8690
 1.608   43.0340
 1.604   42.9320
 1.600   43.1700
 1.596   43.3030
 1.592   43.5670
 1.588   43.5090
 1.584   43.3490
 1.580   43.3730
 1.576   43.6660
 1.572   43.7510
 1.568   43.3590
 1.564   43.1720
 1.560   43.1430
 1.556   43.1930
 1.552   43.2490
 1.548   43.5170
 1.544   43.6010
 1.540   43.2620
 1.536   43.2080
 1.532   42.9710
 1.528   42.9670
 1.524   42.5790
 1.520   42.3960
 1.516   42.2930
 1.512   42.3730
 1.508   42.3730
 1.504   42.0350
 1.500   41.8790
 1.496   41.6960
 1.492   41.7750
 1.488   41.6650
 1.484   41.9320
 1.480   42.1710
 1.476   42.4380
 1.472   42.1450
 1.468   41.9800
 1.464   41.8480
 1.460   41.7160
 1.456   41.4860
 1.452   41.7750
 1.448   41.7430
 1.444   41.6690
 1.440   41.4750
 1.436   41.4820
 1.432   41.1850
 1.428   41.1840
 1.424   41.1840
 1.420   40.7330
 1.416   40.3050
 1.412   39.6620
 1.408   39.2050
 1.404   39.3010
 1.400   39.6110
 1.396   40.1180
 1.392   40.3240
 1.388   40.4830
 1.384   40.9410
 1.380   41.0830
 1.376   41.1890
 1.372   41.7870
 1.368   42.5870
 1.364   42.5720
 1.360   42.1970
 1.356   42.5700
 1.352   43.1890
 1.348   42.7990
 1.344   42.4120
 1.340   42.9340
 1.336   43.0860
 1.332   43.0580
 1.328   42.2260
 1.324   41.8550
 1.320   41.8560
 1.316   41.9610
 1.312   41.9080
 1.308   42.2530
 1.304   42.1990
 1.300   42.1990
 1.296   42.0660
 1.292   42.0130
 1.288   41.8520
 1.284   41.6300
 1.280   41.4740
 1.276   41.2840
 1.272   41.0400
 1.268   41.0900
 1.264   41.0880
 1.260   40.8550
 1.256   41.1760
 1.252   41.9220
 1.248   41.9480
 1.244   41.8930
 1.240   41.8260
 1.236   41.6870
 1.232   41.6560
 1.228   41.2730
 1.224   40.6230
 1.220   40.4720
 1.216   40.8920
 1.212   41.2730
 1.208   40.9990
 1.204   40.8620
 1.200   40.6300
 1.196   40.6300
 1.192   40.4450
 1.188   40.3140
 1.184   40.2200
 1.180   40.3820
 1.176   40.2520
 1.172   40.3350
 1.168   40.1990
 1.164   40.2250
 1.160   40.1780
 1.156   39.7240
 1.152   39.6080
 1.148   39.2710
 1.144   39.1610
 1.140   39.5100
 1.136   39.6920
 1.132   39.4650
 1.128   39.5940
 1.124   39.8890
 1.120   40.1490
 1.116   40.0860
 1.112   39.8490
 1.108   39.8430
 1.104   39.7970
 1.100   39.4350
 1.096   39.1770
 1.092   38.8740
 1.088   39.1760
 1.084   39.7510
 1.080   38.9950
 1.076   38.7550
 1.072   39.1240
 1.068   39.1070
 1.064   39.0810
 1.060   39.0490
 1.056   39.1850
 1.052   39.0900
 1.048   38.6330
 1.044   38.4740
 1.040   38.8920
 1.036   38.8400
 1.032   38.6030
 1.028   38.7390
 1.024   38.5310
 1.020   37.6680
 1.016   37.5680
 1.012   38.2510
 1.008   38.3700
 1.004   38.1670
 1.000   38.2460
 0.996   38.2180
 0.992   37.9260
 0.988   38.4790
 0.984   38.2180
 0.980   38.1810
 0.976   38.0460
 0.972   37.8650
 0.968   37.1920
 0.964   37.5100
 0.960   37.7930
 0.956   37.6000
 0.952   37.5620
 0.948   37.6390
 0.944   37.6910
 0.940   37.5750
 0.936   37.3820
 0.932   37.3570
 0.928   37.4600
 0.924   37.7800
 0.920   37.4320
 0.916   37.2640
 0.912   37.3160
 0.908   37.2780
 0.904   37.3350
 0.900   37.2780
 0.896   37.0460
 0.892   36.8900
 0.888   36.9030
 0.884   36.9930
 0.880   36.8370
 0.876   36.7780
 0.872   36.8300
 0.868   36.9210
 0.864   36.8030
 0.860   36.5270
 0.856   36.8540
 0.852   36.8520
 0.848   36.9540
 0.844   37.3110
 0.840   37.2740
 0.836   37.2080
 0.832   37.4090
 0.828   36.8860
 0.824   37.5690
 0.820   37.4090
 0.816   37.4240
 0.812   37.3850
 0.808   37.8320
 0.804   37.7620
 0.800   37.9640
 0.799   37.9640
 0.798   37.9640
 0.797   37.5340
 0.796   38.0600
 0.795   37.5270
 0.794   37.9080
 0.793   37.9970
 0.792   38.3840
 0.791   37.9930
 0.790   37.9640
 0.789   37.9680
 0.788   38.0310
 0.787   38.1140
 0.786   37.8180
 0.785   37.6970
 0.784   38.0180
 0.783   37.8980
 0.782   37.8010
 0.781   38.4370
 0.780   38.3480
 0.779   38.1370
 0.778   37.9270
 0.777   37.6930
 0.776   37.8390
 0.775   37.5330
 0.774   37.6150
 0.773   37.3190
 0.772   37.0760
 0.771   37.0180
 0.770   37.6450
 0.769   37.1910
 0.768   37.5470
 0.767   37.1270
 0.766   37.0110
 0.765   37.0630
 0.764   36.8830
 0.763   37.0050
 0.762   37.1850
 0.761   37.1500
 0.760   37.0860
 0.759   37.4160
 0.758   37.2340
 0.757   36.5380
 0.756   36.4440
 0.755   36.8270
 0.754   37.0710
 0.753   36.4440
 0.752   36.6570
 0.751   36.5210
 0.750   37.0410
 0.749   36.7090
 0.748   36.2540
 0.747   36.2620
 0.746   36.1470
 0.745   36.1400
 0.744   36.0950
 0.743   36.1810
 0.742   36.2100
 0.741   36.2390
 0.740   35.7270
 0.739   35.5760
 0.738   35.7470
 0.737   35.6900
 0.736   35.8780
 0.735   35.9270
 0.734   35.9190
 0.733   35.7090
 0.732   35.2820
 0.731   35.3490
 0.730   35.3490
 0.729   35.4060
 0.728   35.5200
 0.727   35.2830
 0.726   35.4820
 0.725   35.4820
 0.724   35.3300
 0.723   35.2160
 0.722   35.1500
 0.721   35.3870
 0.720   35.2920
 0.719   35.0540
 0.718   34.7670
 0.717   34.7670
 0.716   34.7400
 0.715   34.6170
 0.714   34.5770
 0.713   34.4410
 0.712   34.4150
 0.711   34.5000
 0.710   34.6410
 0.709   34.4010
 0.708   34.6130
 0.707   34.5960
 0.706   34.2610
 0.705   34.0550
 0.704   33.7660
 0.703   33.9580
 0.702   33.6960
 0.701   33.9340
 0.700   33.8910
 0.699   35.0100
 0.698   34.2430
 0.697   34.1100
 0.696   34.0200
 0.695   34.2600
 0.694   33.9240
 0.693   33.5410
 0.692   33.4920
 0.691   32.9910
 0.690   32.9350
 0.689   33.2220
 0.688   32.9230
 0.687   32.7710
 0.686   32.4450
 0.685   32.2090
 0.684   32.6280
 0.683   32.6830
 0.682   32.8670
 0.681   32.7670
 0.680   32.4450
 0.679   32.5510
 0.678   32.4110
 0.677   32.4390
 0.676   32.5470
 0.675   32.3190
 0.674   32.1800
 0.673   32.1250
 0.672   31.7000
 0.671   32.0800
 0.670   32.1740
 0.669   31.9820
 0.668   31.5350
 0.667   31.2190
 0.666   31.4070
 0.665   31.4420
 0.664   31.3330
 0.663   31.4420
 0.662   31.5780
 0.661   31.1110
 0.660   30.8580
 0.659   31.0120
 0.658   30.9830
 0.657   30.7530
 0.656   30.9740
 0.655   31.1690
 0.654   31.1620
 0.653   30.7900
 0.652   30.4040
 0.651   30.5860
 0.650   30.5330
 0.649   30.4790
 0.648   30.4480
 0.647   30.4520
 0.646   30.2270
 0.645   29.9110
 0.644   29.4520
 0.643   29.7390
 0.642   29.5720
 0.641   29.7000
 0.640   30.1290
 0.639   29.5840
 0.638   29.2740
 0.637   28.9310
 0.636   29.0440
 0.635   29.2720
 0.634   29.2000
 0.633   29.2260
 0.632   29.2000
 0.631   28.9410
 0.630   28.7870
 0.629   28.8640
 0.628   28.6850
 0.627   28.7360
 0.626   28.5810
 0.625   28.9930
 0.624   28.8900
 0.623   28.3650
 0.622   28.7350
 0.621   28.7090
 0.620   28.2980
 0.619   27.9160
 0.618   27.7090
 0.617   28.0610
 0.616   27.8810
 0.615   27.8530
 0.614   27.5890
 0.613   27.6140
 0.612   27.6140
 0.611   27.8750
 0.610   27.2290
 0.609   26.9450
 0.608   26.5420
 0.607   26.5800
 0.606   26.6780
 0.605   26.5480
 0.604   26.5160
 0.603   26.3040
 0.602   26.2470
 0.601   26.1560
 0.600   26.3530
 0.599   26.4190
 0.598   26.3020
 0.597   26.1100
 0.596   26.1690
 0.595   25.9860
 0.594   25.8090
 0.593   25.9310
 0.592   25.9320
 0.591   25.7480
 0.590   25.5400
 0.589   25.3570
 0.588   25.1010
 0.587   25.2230
 0.586   24.7740
 0.585   24.1920
 0.584   24.7980
 0.583   24.5690
 0.582   24.0980
 0.581   23.8790
 0.580   24.0190
 0.579   24.0340
 0.578   23.5820
 0.577   23.4150
 0.576   23.1630
 0.575   23.2670
 0.574   22.7610
 0.573   22.7460
 0.572   22.4480
 0.571   22.0400
 0.570   21.9530
 0.569   21.4800
 0.568   21.3540
 0.567   21.1390
 0.566   21.2010
 0.565   21.0930
 0.564   20.4890
 0.563   19.9720
 0.562   19.7130
 0.561   19.2550
 0.560   19.0550
 0.559   18.4870
 0.558   17.9800
 0.557   17.8340
 0.556   17.6740
 0.555   17.3710
 0.554   16.8610
 0.553   16.8890
 0.552   16.4440
 0.551   16.4560
 0.550   16.4100
 0.549   16.2260
 0.548   15.9650
 0.547   16.1230
 0.546   15.8650
 0.545   15.8140
 0.544   15.5480
 0.543   15.1720
 0.542   15.1890
 0.541   14.6890
 0.540   14.3380
 0.539   14.2430
 0.538   14.2000
 0.537   14.1690
 0.536   13.8800
 0.535   13.2660
 0.534   13.1070
 0.533   13.0920
 0.532   13.0920
 0.531   13.1900
 0.530   12.8520
 0.529   12.9290
 0.528   12.6580
 0.527   12.2540
 0.526   11.7970
 0.525   11.6820
 0.524   11.8800
 0.523   11.8500
 0.522   11.5090
 0.521   11.0780
 0.520   11.2590
 0.519   11.2160
 0.518   10.8760
 0.517   10.7920
 0.516   10.4930
 0.515   10.6440
 0.514   10.2630
 0.513   10.2220
 0.512   10.0930
 0.511   10.0730
 0.510   10.0590
 0.509    9.7870
 0.508    9.6580
 0.507    9.3490
 0.506    9.1690
 0.505    9.2850
 0.504    8.8460
 0.503    8.8080
 0.502    8.6040
 0.501    8.6670
 0.500    8.5380
 0.499    8.6890
 0.498    8.2380
 0.497    8.1210
 0.496    7.7500
 0.495    7.7030
 0.494    7.5980
 0.493    7.7650
 0.492    7.5790
 0.491    7.1160
 0.490    7.0430
 0.489    6.9250
 0.488    6.9130
 0.487    6.8680
 0.486    6.7730
 0.485    6.5686
 0.484    6.4276
 0.483    6.6577
 0.482    6.3563
 0.481    6.1610
 0.480    6.2003
 0.479    5.9537
 0.478    5.9643
 0.477    5.6925
 0.476    5.8144
 0.475    5.7029
 0.474    5.5117
 0.473    5.4811
 0.472    5.0706
 0.471    5.2109
 0.470    5.2010
 0.469    5.0509
 0.468    4.9197
 0.467    4.8177
 0.466    4.8273
 0.465    4.8369
 0.464    4.9005
 0.463    4.7891
 0.462    4.5467
 0.461    4.6126
 0.460    4.1273
 0.459    4.2307
 0.458    4.3101
 0.457    4.2509
 0.456    4.0337
 0.455    3.9724
 0.454    3.8928
 0.453    3.9626
 0.452    3.4787
 0.451    3.2990
 0.450    3.3561
 0.449    3.1666
 0.448    2.9775
 0.447    2.8305
 0.446    2.4483
 0.445    2.4192
 0.444    2.1675
 0.443    2.0709
 0.442    1.7807
 0.441    1.6627
 0.440    1.7094
 0.439    1.5839
 0.438    1.4221
 0.437    1.1269
 0.436    0.9353
 0.435    1.2387
 0.434    1.0147
 0.433    1.0085
 0.432    0.6951
 0.431    0.3652
 0.430    0.0000
 0.429    0.3108
 0.428    0.0000
 0.427    0.0000
 0.426    0.0000
 0.425    0.0000
 0.424    0.0000
 0.423    0.0000
 0.422    0.0000
 0.421    0.0000
 0.420    0.0000
 0.419    0.0000
 0.418    0.0000
 0.417    0.0000
 0.416    0.0000
 0.415    0.0000
 0.414    0.0000
 0.413    0.0000
 0.412    0.0000
 0.411    0.0000
 0.410    0.0000
 0.409    0.0000
 0.408    0.0000
 0.407    0.0000
 0.406    0.0000
 0.405    0.0000
 0.404    0.0000
 0.403    0.0000
 0.402    0.0000
 0.401    0.0000
 0.400    0.0000
